#    1         2         3         4         5         6       7      8            9             10       11           18        19              23                     24         25           26    
# LOG(L)   LOG(TEFF)    T_c      Ro_c       Hc        Hec   %Con_s %Con_c    Log(edad/Myr)      Masa    M^dot        Log(Lnu)  Log MHtot       Log(grav)   R/R_sun   L.H.[erg/s)] Sep.Fase[erg/s]   
 3.254538  5.605784  2.384207  7.964705  0.000000  0.000000  0.000  0.000    2.292122250673498  1.15919 -33.00000   4.2925086  -5.7506554    8.6257922   0.0086703   0.000000      -0.000000    
 3.243678  5.603069  2.384128  7.964549  0.000000  0.000000  0.000  0.000    2.292122250693847  1.15919 -33.00000   4.2923233  -5.7506559    8.6257891   0.0086704   0.000000      -0.000000    
 3.238009  5.601704  2.384059  7.964413  0.000000  0.000000  0.000  0.000    2.292122250718265  1.15919 -33.00000   4.2920351  -5.7506559    8.6259996   0.0086683   0.000000      -0.000000    
 3.234159  5.600783  2.384016  7.964329  0.000000  0.000000  0.000  0.000    2.292122250747567  1.15919 -33.00000   4.2918215  -5.7506559    8.6261675   0.0086666   0.000000      -0.000000    
 3.231067  5.600051  2.383995  7.964290  0.000000  0.000000  0.000  0.000    2.292122250782728  1.15919 -33.00000   4.2916937  -5.7506559    8.6263307   0.0086650   0.000000      -0.000000    
 3.228395  5.599418  2.383950  7.964204  0.000000  0.000000  0.000  0.000    2.292122250822586  1.15919 -33.00000   4.2914662  -5.7506559    8.6264700   0.0086636   0.000000      -0.000000    
 3.225824  5.598823  2.383962  7.964230  0.000000  0.000000  0.000  0.000    2.292122250870415  1.15919 -33.00000   4.2915170  -5.7506559    8.6266591   0.0086617   0.000000      -0.000000    
 3.223279  5.598229  2.383940  7.964193  0.000000  0.000000  0.000  0.000    2.292122250924790  1.15919 -33.00000   4.2914192  -5.7506559    8.6268301   0.0086600   0.000000      -0.000000    
 3.220598  5.597611  2.383951  7.964220  0.000000  0.000000  0.000  0.000    2.292122250990039  1.15919 -33.00000   4.2914684  -5.7506559    8.6270408   0.0086579   0.000000      -0.000000    
 3.217813  5.596966  2.383935  7.964195  0.000000  0.000000  0.000  0.000    2.292122251064221  1.15919 -33.00000   4.2913996  -5.7506559    8.6272440   0.0086559   0.000000      -0.000000    
 3.214802  5.596274  2.383945  7.964222  0.000000  0.000000  0.000  0.000    2.292122251153237  1.15919 -33.00000   4.2914469  -5.7506559    8.6274872   0.0086534   0.000000      -0.000000    
 3.211651  5.595546  2.383928  7.964197  0.000000  0.000000  0.000  0.000    2.292122251254441  1.15919 -33.00000   4.2913740  -5.7506559    8.6277243   0.0086511   0.000000      -0.000000    
 3.208249  5.594765  2.383937  7.964225  0.000000  0.000000  0.000  0.000    2.292122251375885  1.15919 -33.00000   4.2914190  -5.7506559    8.6280034   0.0086483   0.000000      -0.000000    
 3.204745  5.593957  2.383918  7.964201  0.000000  0.000000  0.000  0.000    2.292122251513964  1.15919 -33.00000   4.2913424  -5.7506559    8.6282749   0.0086456   0.000000      -0.000000    
 3.200994  5.593097  2.383926  7.964229  0.000000  0.000000  0.000  0.000    2.292122251679658  1.15919 -33.00000   4.2913799  -5.7506559    8.6285885   0.0086425   0.000000      -0.000000    
 3.197176  5.592219  2.383905  7.964206  0.000000  0.000000  0.000  0.000    2.292122251868047  1.15919 -33.00000   4.2912963  -5.7506559    8.6288930   0.0086394   0.000000      -0.000000    
 3.193150  5.591299  2.383910  7.964235  0.000000  0.000000  0.000  0.000    2.292122252094114  1.15919 -33.00000   4.2913250  -5.7506559    8.6292393   0.0086360   0.000000      -0.000000    
 3.189089  5.590368  2.383887  7.964211  0.000000  0.000000  0.000  0.000    2.292122252351150  1.15919 -33.00000   4.2912299  -5.7506559    8.6295755   0.0086327   0.000000      -0.000000    
 3.184826  5.589397  2.383888  7.964241  0.000000  0.000000  0.000  0.000    2.292122252659594  1.15919 -33.00000   4.2912478  -5.7506559    8.6299549   0.0086289   0.000000      -0.000000    
 3.180525  5.588414  2.383861  7.964219  0.000000  0.000000  0.000  0.000    2.292122253010310  1.15919 -33.00000   4.2911402  -5.7506559    8.6303257   0.0086252   0.000000      -0.000000    
 3.175990  5.587385  2.383858  7.964250  0.000000  0.000000  0.000  0.000    2.292122253431170  1.15919 -33.00000   4.2911417  -5.7506559    8.6307445   0.0086210   0.000000      -0.000000    
 3.171385  5.586337  2.383826  7.964229  0.000000  0.000000  0.000  0.000    2.292122253909730  1.15919 -33.00000   4.2910164  -5.7506559    8.6311577   0.0086169   0.000000      -0.000000    
 3.166472  5.585227  2.383817  7.964262  0.000000  0.000000  0.000  0.000    2.292122254484001  1.15919 -33.00000   4.2909965  -5.7506559    8.6316278   0.0086123   0.000000      -0.000000    
 3.161413  5.584080  2.383778  7.964243  0.000000  0.000000  0.000  0.000    2.292122255137051  1.15919 -33.00000   4.2908471  -5.7506559    8.6320984   0.0086076   0.000000      -0.000000    
 3.155934  5.582844  2.383761  7.964278  0.000000  0.000000  0.000  0.000    2.292122255920711  1.15919 -33.00000   4.2907982  -5.7506559    8.6326360   0.0086023   0.000000      -0.000000    
 3.150220  5.581552  2.383712  7.964261  0.000000  0.000000  0.000  0.000    2.292122256811965  1.15919 -33.00000   4.2906155  -5.7506559    8.6331823   0.0085969   0.000000      -0.000000    
 3.143955  5.580142  2.383683  7.964299  0.000000  0.000000  0.000  0.000    2.292122257881469  1.15919 -33.00000   4.2905267  -5.7506559    8.6338059   0.0085907   0.000000      -0.000000    
 3.137381  5.578658  2.383622  7.964286  0.000000  0.000000  0.000  0.000    2.292122259097972  1.15919 -33.00000   4.2902986  -5.7506559    8.6344439   0.0085844   0.000000      -0.000000    
 3.130174  5.577037  2.383577  7.964328  0.000000  0.000000  0.000  0.000    2.292122260557777  1.15919 -33.00000   4.2901550  -5.7506559    8.6351676   0.0085773   0.000000      -0.000000    
 3.122618  5.575333  2.383498  7.964319  0.000000  0.000000  0.000  0.000    2.292122262218518  1.15919 -33.00000   4.2898651  -5.7506559    8.6359074   0.0085700   0.000000      -0.000000    
 3.114387  5.573483  2.383432  7.964366  0.000000  0.000000  0.000  0.000    2.292122264211407  1.15919 -33.00000   4.2896494  -5.7506560    8.6367370   0.0085618   0.000000      -0.000000    
 3.105843  5.571558  2.383329  7.964364  0.000000  0.000000  0.000  0.000    2.292122266479170  1.15919 -33.00000   4.2892758  -5.7506560    8.6375798   0.0085535   0.000000      -0.000000    
 3.096618  5.569485  2.383235  7.964419  0.000000  0.000000  0.000  0.000    2.292122269200485  1.15919 -33.00000   4.2889572  -5.7506560    8.6385127   0.0085443   0.000000      -0.000000    
 3.087157  5.567354  2.383099  7.964426  0.000000  0.000000  0.000  0.000    2.292122272298199  1.15919 -33.00000   4.2884678  -5.7506560    8.6394527   0.0085350   0.000000      -0.000000    
 3.077058  5.565086  2.382966  7.964491  0.000000  0.000000  0.000  0.000    2.292122276015454  1.15919 -33.00000   4.2880116  -5.7506560    8.6404805   0.0085249   0.000000      -0.000000    
 3.066805  5.562780  2.382786  7.964509  0.000000  0.000000  0.000  0.000    2.292122280248816  1.15919 -33.00000   4.2873660  -5.7506560    8.6415087   0.0085149   0.000000      -0.000000    
 3.055963  5.560348  2.382600  7.964589  0.000000  0.000000  0.000  0.000    2.292122285328849  1.15919 -33.00000   4.2867221  -5.7506561    8.6426216   0.0085040   0.000000      -0.000000    
 3.045039  5.557894  2.382360  7.964623  0.000000  0.000000  0.000  0.000    2.292122291117817  1.15919 -33.00000   4.2858625  -5.7506561    8.6437294   0.0084931   0.000000      -0.000000    
 3.033548  5.555319  2.382102  7.964722  0.000000  0.000000  0.000  0.000    2.292122298064577  1.15919 -33.00000   4.2849632  -5.7506561    8.6449214   0.0084815   0.000000      -0.000000    
 3.022015  5.552732  2.381780  7.964778  0.000000  0.000000  0.000  0.000    2.292122305987529  1.15919 -33.00000   4.2838127  -5.7506562    8.6461057   0.0084699   0.000000      -0.000000    
 3.009932  5.550029  2.381426  7.964902  0.000000  0.000000  0.000  0.000    2.292122315495071  1.15919 -33.00000   4.2825654  -5.7506562    8.6473760   0.0084575   0.000000      -0.000000    
 2.997785  5.547308  2.380994  7.964988  0.000000  0.000000  0.000  0.000    2.292122326351172  1.15919 -33.00000   4.2810185  -5.7506563    8.6486398   0.0084452   0.000000      -0.000000    
 2.985061  5.544466  2.380509  7.965147  0.000000  0.000000  0.000  0.000    2.292122339378493  1.15919 -33.00000   4.2792983  -5.7506564    8.6499946   0.0084321   0.000000      -0.000000    
 2.972238  5.541598  2.379928  7.965273  0.000000  0.000000  0.000  0.000    2.292122354276955  1.15919 -33.00000   4.2772119  -5.7506565    8.6513467   0.0084190   0.000000      -0.000000    
 2.958784  5.538597  2.379269  7.965480  0.000000  0.000000  0.000  0.000    2.292122372155108  1.15919 -33.00000   4.2748497  -5.7506565    8.6527955   0.0084049   0.000000      -0.000000    
 2.945214  5.535567  2.378490  7.965659  0.000000  0.000000  0.000  0.000    2.292122392644587  1.15919 -33.00000   4.2720299  -5.7506566    8.6542449   0.0083909   0.000000      -0.000000    
 2.930984  5.532396  2.377597  7.965930  0.000000  0.000000  0.000  0.000    2.292122417231959  1.15919 -33.00000   4.2687970  -5.7506567    8.6557935   0.0083760   0.000000      -0.000000    
 2.916658  5.529202  2.376554  7.966182  0.000000  0.000000  0.000  0.000    2.292122445491338  1.15919 -33.00000   4.2649815  -5.7506568    8.6573418   0.0083611   0.000000      -0.000000    
 2.901764  5.525889  2.375353  7.966539  0.000000  0.000000  0.000  0.000    2.292122479402591  1.15919 -33.00000   4.2605718  -5.7506569    8.6589844   0.0083453   0.000000      -0.000000    
 2.886891  5.522579  2.373962  7.966889  0.000000  0.000000  0.000  0.000    2.292122518529143  1.15919 -33.00000   4.2554104  -5.7506570    8.6606201   0.0083296   0.000000      -0.000000    
 2.871670  5.519203  2.372360  7.967361  0.000000  0.000000  0.000  0.000    2.292122565481001  1.15919 -33.00000   4.2494144  -5.7506571    8.6623364   0.0083131   0.000000      -0.000000    
 2.856684  5.515882  2.370517  7.967842  0.000000  0.000000  0.000  0.000    2.292122619935033  1.15919 -33.00000   4.2424266  -5.7506572    8.6640351   0.0082969   0.000000      -0.000000    
 2.841683  5.512572  2.368399  7.968466  0.000000  0.000000  0.000  0.000    2.292122685279863  1.15919 -33.00000   4.2343007  -5.7506573    8.6657983   0.0082801   0.000000      -0.000000    
 2.827162  5.509377  2.365976  7.969122  0.000000  0.000000  0.000  0.000    2.292122761591708  1.15919 -33.00000   4.2248589  -5.7506573    8.6675410   0.0082635   0.000000      -0.000000    
 2.812968  5.506279  2.363207  7.969947  0.000000  0.000000  0.000  0.000    2.292122853165905  1.15919 -33.00000   4.2138893  -5.7506573    8.6693420   0.0082463   0.000000      -0.000000    
 2.799404  5.503338  2.360054  7.970833  0.000000  0.000000  0.000  0.000    2.292122961096423  1.15919 -33.00000   4.2011434  -5.7506572    8.6711416   0.0082293   0.000000      -0.000000    
 2.786351  5.500545  2.356484  7.971919  0.000000  0.000000  0.000  0.000    2.292123090613008  1.15919 -33.00000   4.1864022  -5.7506570    8.6730237   0.0082115   0.000000      -0.000000    
 2.773823  5.497900  2.352434  7.973107  0.000000  0.000000  0.000  0.000    2.292123245117896  1.15919 -33.00000   4.1692469  -5.7506566    8.6749697   0.0081931   0.000000      -0.000000    
 2.761697  5.495393  2.347906  7.974527  0.000000  0.000000  0.000  0.000    2.292123430523689  1.15919 -33.00000   4.1495334  -5.7506560    8.6770699   0.0081733   0.000000      -0.000000    
 2.749725  5.492970  2.342830  7.976088  0.000000  0.000000  0.000  0.000    2.292123653010536  1.15919 -33.00000   4.1267306  -5.7506550    8.6793493   0.0081519   0.000000      -0.000000    
 2.737659  5.490596  2.337242  7.977912  0.000000  0.000000  0.000  0.000    2.292123919994602  1.15919 -33.00000   4.1007635  -5.7506537    8.6819177   0.0081278   0.000000      -0.000000    
 2.725100  5.488181  2.331095  7.979903  0.000000  0.000000  0.000  0.000    2.292124240375264  1.15919 -33.00000   4.0711076  -5.7506519    8.6848157   0.0081007   0.000000      -0.000000    
 2.712964  5.485892  2.325076  7.981956  0.000000  0.000000  0.000  0.000    2.292124585005529  1.15919 -33.00000   4.0410080  -5.7506497    8.6877954   0.0080730   0.000000      -0.000000    
 2.701134  5.483669  2.319263  7.983920  0.000000  0.000000  0.000  0.000    2.292124947136716  1.15919 -33.00000   4.0109035  -5.7506471    8.6907328   0.0080457   0.000000      -0.000000    
 2.689472  5.481483  2.313702  7.985894  0.000000  0.000000  0.000  0.000    2.292125326089598  1.15919 -33.00000   3.9811267  -5.7506442    8.6936537   0.0080187   0.000000      -0.000000    
 2.677713  5.479264  2.308307  7.987781  0.000000  0.000000  0.000  0.000    2.292125724280647  1.15919 -33.00000   3.9513140  -5.7506410    8.6965342   0.0079922   0.000000      -0.000000    
 2.665865  5.477017  2.303118  7.989671  0.000000  0.000000  0.000  0.000    2.292126141076571  1.15919 -33.00000   3.9217503  -5.7506376    8.6993971   0.0079659   0.000000      -0.000000    
 2.653745  5.474694  2.298056  7.991451  0.000000  0.000000  0.000  0.000    2.292126578797734  1.15919 -33.00000   3.8920762  -5.7506369    8.7022231   0.0079400   0.000000      -0.000000    
 2.641436  5.472325  2.293182  7.993239  0.000000  0.000000  0.000  0.000    2.292127036444095  1.15919 -33.00000   3.8626729  -5.7506340    8.7050556   0.0079142   0.000000      -0.000000    
 2.628790  5.469869  2.288419  7.994940  0.000000  0.000000  0.000  0.000    2.292127516978076  1.15919 -33.00000   3.8331807  -5.7506311    8.7078800   0.0078885   0.000000      -0.000000    
 2.615897  5.467358  2.283821  7.996657  0.000000  0.000000  0.000  0.000    2.292128019502357  1.15919 -33.00000   3.8039324  -5.7506282    8.7107287   0.0078626   0.000000      -0.000000    
 2.602619  5.464751  2.279316  7.998289  0.000000  0.000000  0.000  0.000    2.292128547033663  1.15919 -33.00000   3.7745763  -5.7506252    8.7135783   0.0078369   0.000000      -0.000000    
 2.589062  5.462082  2.274957  7.999940  0.000000  0.000000  0.000  0.000    2.292129098614756  1.15919 -33.00000   3.7454503  -5.7506221    8.7164575   0.0078109   0.000000      -0.000000    
 2.575090  5.459309  2.270676  8.001508  0.000000  0.000000  0.000  0.000    2.292129677592672  1.15919 -33.00000   3.7161998  -5.7506220    8.7193380   0.0077851   0.000000      -0.000000    
 2.560796  5.456463  2.266526  8.003097  0.000000  0.000000  0.000  0.000    2.292130282960887  1.15919 -33.00000   3.6871587  -5.7506196    8.7222485   0.0077590   0.000000      -0.000000    
 2.546051  5.453505  2.262439  8.004604  0.000000  0.000000  0.000  0.000    2.292130918413630  1.15919 -33.00000   3.6579634  -5.7506171    8.7251604   0.0077331   0.000000      -0.000000    
 2.530952  5.450464  2.258469  8.006132  0.000000  0.000000  0.000  0.000    2.292131582833564  1.15919 -33.00000   3.6289559  -5.7506147    8.7280974   0.0077070   0.000000      -0.000000    
 2.515349  5.447296  2.254549  8.007575  0.000000  0.000000  0.000  0.000    2.292132280228858  1.15919 -33.00000   3.5997605  -5.7506121    8.7310283   0.0076810   0.000000      -0.000000    
 2.499361  5.444039  2.250739  8.009042  0.000000  0.000000  0.000  0.000    2.292133009231161  1.15919 -33.00000   3.5707546  -5.7506097    8.7339868   0.0076549   0.000000      -0.000000    
 2.482840  5.440651  2.246972  8.010433  0.000000  0.000000  0.000  0.000    2.292133774634322  1.15919 -33.00000   3.5415756  -5.7506071    8.7369553   0.0076288   0.000000      -0.000000    
 2.465910  5.437168  2.243304  8.011853  0.000000  0.000000  0.000  0.000    2.292134575244558  1.15919 -33.00000   3.5125688  -5.7506077    8.7399553   0.0076025   0.000000      -0.000000    
 2.448424  5.433549  2.239671  8.013199  0.000000  0.000000  0.000  0.000    2.292135415998337  1.15919 -33.00000   3.4833685  -5.7506056    8.7429650   0.0075762   0.000000      -0.000000    
 2.430526  5.429834  2.236129  8.014574  0.000000  0.000000  0.000  0.000    2.292136295533130  1.15919 -33.00000   3.4543291  -5.7506036    8.7460026   0.0075497   0.000000      -0.000000    
 2.412074  5.425980  2.232616  8.015876  0.000000  0.000000  0.000  0.000    2.292137219336842  1.15919 -33.00000   3.4250861  -5.7506014    8.7490403   0.0075234   0.000000      -0.000000    
 2.393233  5.422036  2.229187  8.017210  0.000000  0.000000  0.000  0.000    2.292138185966058  1.15919 -33.00000   3.3959848  -5.7505994    8.7521028   0.0074969   0.000000      -0.000000    
 2.373867  5.417959  2.225780  8.018471  0.000000  0.000000  0.000  0.000    2.292139201500397  1.15919 -33.00000   3.3666711  -5.7505973    8.7551621   0.0074705   0.000000      -0.000000    
 2.354127  5.413794  2.222451  8.019765  0.000000  0.000000  0.000  0.000    2.292140264474553  1.15919 -33.00000   3.3374848  -5.7505949    8.7582434   0.0074441   0.000000      -0.000000    
 2.333874  5.409499  2.219136  8.020982  0.000000  0.000000  0.000  0.000    2.292141381612613  1.15919 -33.00000   3.3080571  -5.7505927    8.7613133   0.0074178   0.000000      -0.000000    
 2.313265  5.405117  2.215888  8.022222  0.000000  0.000000  0.000  0.000    2.292142551088715  1.15919 -33.00000   3.2787208  -5.7505901    8.7643958   0.0073915   0.000000      -0.000000    
 2.292170  5.400609  2.212651  8.023384  0.000000  0.000000  0.000  0.000    2.292143780126016  1.15919 -33.00000   3.2491384  -5.7505877    8.7674605   0.0073655   0.000000      -0.000000    
 2.270746  5.396022  2.209479  8.024577  0.000000  0.000000  0.000  0.000    2.292145067465430  1.15919 -33.00000   3.2196483  -5.7505852    8.7705352   0.0073395   0.000000      -0.000000    
 2.248841  5.391310  2.206313  8.025696  0.000000  0.000000  0.000  0.000    2.292146421576325  1.15919 -33.00000   3.1898934  -5.7505823    8.7735927   0.0073137   0.000000      -0.000000    
 2.226620  5.386521  2.203208  8.026847  0.000000  0.000000  0.000  0.000    2.292147840846652  1.15919 -33.00000   3.1602166  -5.7505795    8.7766560   0.0072879   0.000000      -0.000000    
 2.203939  5.381611  2.200106  8.027926  0.000000  0.000000  0.000  0.000    2.292149334538854  1.15919 -33.00000   3.1302581  -5.7505766    8.7796970   0.0072625   0.000000      -0.000000    
 2.180959  5.376627  2.197061  8.029039  0.000000  0.000000  0.000  0.000    2.292150900860633  1.15919 -33.00000   3.1003709  -5.7505732    8.7827433   0.0072370   0.000000      -0.000000    
 2.157524  5.371523  2.194016  8.030080  0.000000  0.000000  0.000  0.000    2.292152550079229  1.15919 -33.00000   3.0701861  -5.7505696    8.7857619   0.0072119   0.000000      -0.000000    
 2.133814  5.366350  2.191025  8.031156  0.000000  0.000000  0.000  0.000    2.292154280012309  1.15919 -33.00000   3.0400668  -5.7505661    8.7887791   0.0071869   0.000000      -0.000000    
 2.109668  5.361060  2.188031  8.032160  0.000000  0.000000  0.000  0.000    2.292156101824442  1.15919 -33.00000   3.0096493  -5.7505625    8.7917648   0.0071623   0.000000      -0.000000    
 2.085253  5.355701  2.185089  8.033199  0.000000  0.000000  0.000  0.000    2.292158012856982  1.15919 -33.00000   2.9792922  -5.7505584    8.7947436   0.0071377   0.000000      -0.000000    
 2.060407  5.350224  2.182143  8.034163  0.000000  0.000000  0.000  0.000    2.292160024943677  1.15919 -33.00000   2.9486365  -5.7505543    8.7976816   0.0071136   0.000000      -0.000000    
 2.035299  5.344676  2.179246  8.035157  0.000000  0.000000  0.000  0.000    2.292162134553144  1.15919 -33.00000   2.9180343  -5.7505499    8.8005985   0.0070898   0.000000      -0.000000    
