#    1         2         3         4         5         6       7      8            9             10       11           18        19              23                     24         25           26    
# LOG(L)   LOG(TEFF)    T_c      Ro_c       Hc        Hec   %Con_s %Con_c    Log(edad/Myr)      Masa    M^dot        Log(Lnu)  Log MHtot       Log(grav)   R/R_sun   L.H.[erg/s)] Sep.Fase[erg/s]   
 3.255850  5.638170  2.504527  8.213849  0.000000  0.000000  0.000  0.000    2.292122258822443  1.22573 -33.00000   4.9604005  -5.7316529    8.7782665   0.0074803   0.000000      -0.000000    
 3.247564  5.636234  2.504194  8.213838  0.000000  0.000000  0.000  0.000    2.292122260541125  1.22573 -33.00000   4.9594229  -5.7316529    8.7788071   0.0074757   0.000000      -0.000000    
 3.239979  5.634542  2.503855  8.213941  0.000000  0.000000  0.000  0.000    2.292122262603542  1.22573 -33.00000   4.9584714  -5.7316529    8.7796246   0.0074686   0.000000      -0.000000    
 3.232206  5.632808  2.503429  8.214025  0.000000  0.000000  0.000  0.000    2.292122265078444  1.22573 -33.00000   4.9571939  -5.7316529    8.7804619   0.0074614   0.000000      -0.000000    
 3.224252  5.631038  2.502958  8.214196  0.000000  0.000000  0.000  0.000    2.292122268048325  1.22573 -33.00000   4.9558286  -5.7316463    8.7813361   0.0074539   0.000000      -0.000000    
 3.216360  5.629280  2.502387  8.214320  0.000000  0.000000  0.000  0.000    2.292122271446397  1.22573 -33.00000   4.9541108  -5.7316419    8.7821964   0.0074466   0.000000      -0.000000    
 3.208207  5.627476  2.501744  8.214541  0.000000  0.000000  0.000  0.000    2.292122275524084  1.22573 -33.00000   4.9522238  -5.7316392    8.7831335   0.0074385   0.000000      -0.000000    
 3.200050  5.625671  2.500977  8.214723  0.000000  0.000000  0.000  0.000    2.292122280200076  1.22573 -33.00000   4.9499109  -5.7316384    8.7840679   0.0074305   0.000000      -0.000000    
 3.191536  5.623798  2.500104  8.215011  0.000000  0.000000  0.000  0.000    2.292122285811268  1.22573 -33.00000   4.9473146  -5.7316379    8.7850926   0.0074218   0.000000      -0.000000    
 3.182916  5.621902  2.499075  8.215269  0.000000  0.000000  0.000  0.000    2.292122292265186  1.22573 -33.00000   4.9441893  -5.7316374    8.7861289   0.0074129   0.000000      -0.000000    
 3.173853  5.619923  2.497897  8.215647  0.000000  0.000000  0.000  0.000    2.292122300009886  1.22573 -33.00000   4.9406312  -5.7316368    8.7872722   0.0074032   0.000000      -0.000000    
 3.164564  5.617893  2.496522  8.216010  0.000000  0.000000  0.000  0.000    2.292122308954015  1.22573 -33.00000   4.9363992  -5.7316360    8.7884443   0.0073932   0.000000      -0.000000    
 3.154718  5.615756  2.494943  8.216510  0.000000  0.000000  0.000  0.000    2.292122319686968  1.22573 -33.00000   4.9315373  -5.7316349    8.7897430   0.0073821   0.000000      -0.000000    
 3.144512  5.613542  2.493114  8.217014  0.000000  0.000000  0.000  0.000    2.292122332150865  1.22573 -33.00000   4.9258033  -5.7316334    8.7910923   0.0073707   0.000000      -0.000000    
 3.133649  5.611200  2.491015  8.217680  0.000000  0.000000  0.000  0.000    2.292122347107541  1.22573 -33.00000   4.9191817  -5.7316326    8.7925880   0.0073580   0.000000      -0.000000    
 3.122308  5.608757  2.488597  8.218375  0.000000  0.000000  0.000  0.000    2.292122364607347  1.22573 -33.00000   4.9114031  -5.7316319    8.7941574   0.0073447   0.000000      -0.000000    
 3.110286  5.606185  2.485836  8.219263  0.000000  0.000000  0.000  0.000    2.292122385607112  1.22573 -33.00000   4.9024132  -5.7316313    8.7958908   0.0073301   0.000000      -0.000000    
 3.097704  5.603497  2.482666  8.220216  0.000000  0.000000  0.000  0.000    2.292122410429991  1.22573 -33.00000   4.8918589  -5.7316305    8.7977219   0.0073146   0.000000      -0.000000    
 3.084543  5.600708  2.479076  8.221398  0.000000  0.000000  0.000  0.000    2.292122440217446  1.22573 -33.00000   4.8796753  -5.7316296    8.7997239   0.0072978   0.000000      -0.000000    
 3.070860  5.597818  2.474965  8.222696  0.000000  0.000000  0.000  0.000    2.292122475911077  1.22573 -33.00000   4.8653474  -5.7316284    8.8018488   0.0072800   0.000000      -0.000000    
 3.056875  5.594895  2.470365  8.224266  0.000000  0.000000  0.000  0.000    2.292122518743430  1.22573 -33.00000   4.8488779  -5.7316265    8.8041424   0.0072608   0.000000      -0.000000    
 3.042723  5.591961  2.465184  8.225998  0.000000  0.000000  0.000  0.000    2.292122570142249  1.22573 -33.00000   4.8297099  -5.7316245    8.8065563   0.0072406   0.000000      -0.000000    
 3.028685  5.589096  2.459474  8.228046  0.000000  0.000000  0.000  0.000    2.292122631820824  1.22573 -33.00000   4.8078509  -5.7316217    8.8091357   0.0072191   0.000000      -0.000000    
 3.014899  5.586325  2.453165  8.230296  0.000000  0.000000  0.000  0.000    2.292122705835102  1.22573 -33.00000   4.7827262  -5.7316176    8.8118371   0.0071967   0.000000      -0.000000    
 3.001578  5.583714  2.446329  8.232893  0.000000  0.000000  0.000  0.000    2.292122794652219  1.22573 -33.00000   4.7543264  -5.7316151    8.8147143   0.0071729   0.000000      -0.000000    
 2.988959  5.581305  2.439047  8.235670  0.000000  0.000000  0.000  0.000    2.292122899257426  1.22573 -33.00000   4.7226736  -5.7316126    8.8176950   0.0071484   0.000000      -0.000000    
 2.978166  5.579318  2.432186  8.238447  0.000000  0.000000  0.000  0.000    2.292123008793202  1.22573 -33.00000   4.6915514  -5.7316098    8.8205400   0.0071250   0.000000      -0.000000    
 2.968637  5.577615  2.425613  8.241101  0.000000  0.000000  0.000  0.000    2.292123123943490  1.22573 -33.00000   4.6605018  -5.7316064    8.8232578   0.0071027   0.000000      -0.000000    
 2.960141  5.576155  2.419392  8.243752  0.000000  0.000000  0.000  0.000    2.292123244291726  1.22573 -33.00000   4.6299336  -5.7316032    8.8259152   0.0070810   0.000000      -0.000000    
 2.952281  5.574838  2.413402  8.246281  0.000000  0.000000  0.000  0.000    2.292123370597402  1.22573 -33.00000   4.5994134  -5.7316021    8.8285073   0.0070599   0.000000      -0.000000    
 2.944977  5.573659  2.407713  8.248815  0.000000  0.000000  0.000  0.000    2.292123502440892  1.22573 -33.00000   4.5693642  -5.7315997    8.8310927   0.0070389   0.000000      -0.000000    
 2.937906  5.572528  2.402197  8.251214  0.000000  0.000000  0.000  0.000    2.292123640759600  1.22573 -33.00000   4.5392552  -5.7315971    8.8336437   0.0070183   0.000000      -0.000000    
 2.931059  5.571454  2.396926  8.253589  0.000000  0.000000  0.000  0.000    2.292123784991925  1.22573 -33.00000   4.5095312  -5.7315943    8.8361948   0.0069977   0.000000      -0.000000    
 2.924224  5.570377  2.391803  8.255839  0.000000  0.000000  0.000  0.000    2.292123936073566  1.22573 -33.00000   4.4797680  -5.7315912    8.8387190   0.0069774   0.000000      -0.000000    
 2.917436  5.569306  2.386916  8.258092  0.000000  0.000000  0.000  0.000    2.292124093102268  1.22573 -33.00000   4.4504860  -5.7315878    8.8412254   0.0069573   0.000000      -0.000000    
 2.910517  5.568203  2.382151  8.260228  0.000000  0.000000  0.000  0.000    2.292124257386294  1.22573 -33.00000   4.4211888  -5.7315870    8.8437307   0.0069373   0.000000      -0.000000    
 2.903503  5.567077  2.377586  8.262376  0.000000  0.000000  0.000  0.000    2.292124428378554  1.22573 -33.00000   4.3922903  -5.7315847    8.8462413   0.0069172   0.000000      -0.000000    
 2.896251  5.565884  2.373121  8.264411  0.000000  0.000000  0.000  0.000    2.292124607121766  1.22573 -33.00000   4.3633380  -5.7315830    8.8487202   0.0068975   0.000000      -0.000000    
 2.888819  5.564651  2.368828  8.266465  0.000000  0.000000  0.000  0.000    2.292124793303466  1.22573 -33.00000   4.3347422  -5.7315804    8.8512189   0.0068777   0.000000      -0.000000    
 2.881064  5.563333  2.364614  8.268413  0.000000  0.000000  0.000  0.000    2.292124988082649  1.22573 -33.00000   4.3060552  -5.7315777    8.8537030   0.0068581   0.000000      -0.000000    
 2.873066  5.561960  2.360553  8.270381  0.000000  0.000000  0.000  0.000    2.292125190868894  1.22573 -33.00000   4.2776917  -5.7315748    8.8562087   0.0068383   0.000000      -0.000000    
 2.864701  5.560491  2.356559  8.272234  0.000000  0.000000  0.000  0.000    2.292125402598718  1.22573 -33.00000   4.2492422  -5.7315719    8.8586974   0.0068187   0.000000      -0.000000    
 2.856021  5.558954  2.352692  8.274122  0.000000  0.000000  0.000  0.000    2.292125623766986  1.22573 -33.00000   4.2210183  -5.7315717    8.8612307   0.0067989   0.000000      -0.000000    
 2.846954  5.557320  2.348888  8.275903  0.000000  0.000000  0.000  0.000    2.292125854397875  1.22573 -33.00000   4.1927345  -5.7315695    8.8637599   0.0067791   0.000000      -0.000000    
 2.837598  5.555622  2.345216  8.277709  0.000000  0.000000  0.000  0.000    2.292126094039361  1.22573 -33.00000   4.1648117  -5.7315673    8.8663276   0.0067591   0.000000      -0.000000    
 2.827797  5.553816  2.341584  8.279418  0.000000  0.000000  0.000  0.000    2.292126344679038  1.22573 -33.00000   4.1367331  -5.7315651    8.8689004   0.0067391   0.000000      -0.000000    
 2.817673  5.551939  2.338069  8.281160  0.000000  0.000000  0.000  0.000    2.292126605466254  1.22573 -33.00000   4.1089331  -5.7315628    8.8715181   0.0067188   0.000000      -0.000000    
 2.807071  5.549946  2.334584  8.282808  0.000000  0.000000  0.000  0.000    2.292126878434338  1.22573 -33.00000   4.0809649  -5.7315604    8.8741493   0.0066985   0.000000      -0.000000    
 2.796134  5.547881  2.331208  8.284490  0.000000  0.000000  0.000  0.000    2.292127162295151  1.22573 -33.00000   4.0532853  -5.7315580    8.8768241   0.0066779   0.000000      -0.000000    
 2.784670  5.545687  2.327846  8.286083  0.000000  0.000000  0.000  0.000    2.292127460141216  1.22573 -33.00000   4.0253349  -5.7315556    8.8795137   0.0066573   0.000000      -0.000000    
 2.772865  5.543418  2.324591  8.287708  0.000000  0.000000  0.000  0.000    2.292127769429886  1.22573 -33.00000   3.9977015  -5.7315563    8.8822410   0.0066364   0.000000      -0.000000    
 2.760523  5.541018  2.321343  8.289244  0.000000  0.000000  0.000  0.000    2.292128093993773  1.22573 -33.00000   3.9697977  -5.7315544    8.8849848   0.0066155   0.000000      -0.000000    
 2.747808  5.538533  2.318186  8.290802  0.000000  0.000000  0.000  0.000    2.292128431310443  1.22573 -33.00000   3.9421279  -5.7315526    8.8877592   0.0065944   0.000000      -0.000000    
 2.734546  5.535912  2.315030  8.292261  0.000000  0.000000  0.000  0.000    2.292128784903980  1.22573 -33.00000   3.9141712  -5.7315508    8.8905378   0.0065733   0.000000      -0.000000    
 2.720948  5.533214  2.311973  8.293750  0.000000  0.000000  0.000  0.000    2.292129151459703  1.22573 -33.00000   3.8865620  -5.7315490    8.8933427   0.0065521   0.000000      -0.000000    
 2.706833  5.530386  2.308923  8.295141  0.000000  0.000000  0.000  0.000    2.292129534473123  1.22573 -33.00000   3.8587521  -5.7315471    8.8961456   0.0065310   0.000000      -0.000000    
 2.692511  5.527505  2.305990  8.296553  0.000000  0.000000  0.000  0.000    2.292129928144722  1.22573 -33.00000   3.8314821  -5.7315454    8.8989458   0.0065100   0.000000      -0.000000    
 2.677455  5.524451  2.303019  8.297890  0.000000  0.000000  0.000  0.000    2.292130345518229  1.22573 -33.00000   3.8036258  -5.7315435    8.9017846   0.0064888   0.000000      -0.000000    
 2.662087  5.521324  2.300140  8.299263  0.000000  0.000000  0.000  0.000    2.292130777855676  1.22573 -33.00000   3.7761119  -5.7315445    8.9046441   0.0064674   0.000000      -0.000000    
 2.646109  5.518046  2.297248  8.300549  0.000000  0.000000  0.000  0.000    2.292131231980057  1.22573 -33.00000   3.7482595  -5.7315431    8.9075096   0.0064461   0.000000      -0.000000    
 2.629618  5.514653  2.294410  8.301887  0.000000  0.000000  0.000  0.000    2.292131708294470  1.22573 -33.00000   3.7204197  -5.7315415    8.9104299   0.0064245   0.000000      -0.000000    
 2.612723  5.511150  2.291597  8.303127  0.000000  0.000000  0.000  0.000    2.292132201508204  1.22573 -33.00000   3.6926194  -5.7315401    8.9133112   0.0064032   0.000000      -0.000000    
 2.595275  5.507523  2.288830  8.304428  0.000000  0.000000  0.000  0.000    2.292132719952747  1.22573 -33.00000   3.6647710  -5.7315385    8.9162528   0.0063816   0.000000      -0.000000    
 2.577215  5.503741  2.286056  8.305638  0.000000  0.000000  0.000  0.000    2.292133262758522  1.22573 -33.00000   3.6366696  -5.7315371    8.9191854   0.0063601   0.000000      -0.000000    
 2.558889  5.499894  2.283373  8.306885  0.000000  0.000000  0.000  0.000    2.292133822959163  1.22573 -33.00000   3.6090191  -5.7315355    8.9221209   0.0063386   0.000000      -0.000000    
 2.539754  5.495848  2.280657  8.308053  0.000000  0.000000  0.000  0.000    2.292134414846337  1.22573 -33.00000   3.5808679  -5.7315339    8.9250737   0.0063171   0.000000      -0.000000    
 2.520128  5.491688  2.278005  8.309268  0.000000  0.000000  0.000  0.000    2.292135031602289  1.22573 -33.00000   3.5528996  -5.7315321    8.9280584   0.0062954   0.000000      -0.000000    
 2.499970  5.487384  2.275362  8.310384  0.000000  0.000000  0.000  0.000    2.292135672228726  1.22573 -33.00000   3.5248858  -5.7315305    8.9310000   0.0062741   0.000000      -0.000000    
 2.479105  5.482916  2.272753  8.311560  0.000000  0.000000  0.000  0.000    2.292136346892047  1.22573 -33.00000   3.4967720  -5.7315285    8.9339960   0.0062525   0.000000      -0.000000    
 2.457630  5.478289  2.270135  8.312642  0.000000  0.000000  0.000  0.000    2.292137052096187  1.22573 -33.00000   3.4684405  -5.7315267    8.9369622   0.0062312   0.000000      -0.000000    
 2.436061  5.473630  2.267613  8.313757  0.000000  0.000000  0.000  0.000    2.292137776036709  1.22573 -33.00000   3.4407029  -5.7315246    8.9398965   0.0062102   0.000000      -0.000000    
 2.414023  5.468841  2.265086  8.314774  0.000000  0.000000  0.000  0.000    2.292138529979557  1.22573 -33.00000   3.4128122  -5.7315227    8.9427771   0.0061896   0.000000      -0.000000    
 2.391539  5.463941  2.262602  8.315836  0.000000  0.000000  0.000  0.000    2.292139318524440  1.22573 -33.00000   3.3849625  -5.7315204    8.9456587   0.0061691   0.000000      -0.000000    
 2.368434  5.458880  2.260088  8.316818  0.000000  0.000000  0.000  0.000    2.292140148935563  1.22573 -33.00000   3.3566899  -5.7315183    8.9485207   0.0061488   0.000000      -0.000000    
 2.345010  5.453743  2.257624  8.317857  0.000000  0.000000  0.000  0.000    2.292141017167675  1.22573 -33.00000   3.3285410  -5.7315157    8.9513977   0.0061285   0.000000      -0.000000    
 2.321250  5.448510  2.255154  8.318807  0.000000  0.000000  0.000  0.000    2.292141922492058  1.22573 -33.00000   3.3002646  -5.7315134    8.9542241   0.0061086   0.000000      -0.000000    
 2.297133  5.443192  2.252722  8.319818  0.000000  0.000000  0.000  0.000    2.292142872943913  1.22573 -33.00000   3.2719965  -5.7315106    8.9570713   0.0060886   0.000000      -0.000000    
 2.272714  5.437786  2.250278  8.320736  0.000000  0.000000  0.000  0.000    2.292143865397871  1.22573 -33.00000   3.2435497  -5.7315076    8.9598640   0.0060691   0.000000      -0.000000    
 2.248242  5.432361  2.247893  8.321698  0.000000  0.000000  0.000  0.000    2.292144896026563  1.22573 -33.00000   3.2153997  -5.7315049    8.9626368   0.0060497   0.000000      -0.000000    
 2.223810  5.426924  2.245522  8.322558  0.000000  0.000000  0.000  0.000    2.292145958839273  1.22573 -33.00000   3.1874015  -5.7315021    8.9653201   0.0060311   0.000000      -0.000000    
 2.198991  5.421396  2.243175  8.323482  0.000000  0.000000  0.000  0.000    2.292147079997532  1.22573 -33.00000   3.1592761  -5.7314989    8.9680286   0.0060123   0.000000      -0.000000    
 2.173974  5.415803  2.240815  8.324315  0.000000  0.000000  0.000  0.000    2.292148249575498  1.22573 -33.00000   3.1309942  -5.7314953    8.9706745   0.0059940   0.000000      -0.000000    
 2.148536  5.410112  2.238473  8.325214  0.000000  0.000000  0.000  0.000    2.292149486796241  1.22573 -33.00000   3.1025177  -5.7314918    8.9733476   0.0059756   0.000000      -0.000000    
 2.122845  5.404344  2.236111  8.326026  0.000000  0.000000  0.000  0.000    2.292150782420560  1.22573 -33.00000   3.0738009  -5.7314882    8.9759647   0.0059576   0.000000      -0.000000    
 2.097377  5.398621  2.233823  8.326886  0.000000  0.000000  0.000  0.000    2.292152119272336  1.22573 -33.00000   3.0455899  -5.7314840    8.9785441   0.0059399   0.000000      -0.000000    
 2.071381  5.392760  2.231488  8.327668  0.000000  0.000000  0.000  0.000    2.292153535134498  1.22573 -33.00000   3.0168181  -5.7314795    8.9810940   0.0059225   0.000000      -0.000000    
 2.045130  5.386836  2.229183  8.328511  0.000000  0.000000  0.000  0.000    2.292155024690363  1.22573 -33.00000   2.9880205  -5.7314746    8.9836516   0.0059051   0.000000      -0.000000    
 2.018361  5.380774  2.226834  8.329272  0.000000  0.000000  0.000  0.000    2.292156600278124  1.22573 -33.00000   2.9587066  -5.7314696    8.9861694   0.0058880   0.000000      -0.000000    
 1.990975  5.374565  2.224486  8.330102  0.000000  0.000000  0.000  0.000    2.292158280493573  1.22573 -33.00000   2.9289915  -5.7314641    8.9887188   0.0058708   0.000000      -0.000000    
 1.963099  5.368217  2.222097  8.330841  0.000000  0.000000  0.000  0.000    2.292160055026973  1.22573 -33.00000   2.8987937  -5.7314593    8.9912041   0.0058540   0.000000      -0.000000    
 1.935278  5.361874  2.219768  8.331628  0.000000  0.000000  0.000  0.000    2.292161900198078  1.22573 -33.00000   2.8689320  -5.7314531    8.9936536   0.0058375   0.000000      -0.000000    
 1.907287  5.355472  2.217427  8.332328  0.000000  0.000000  0.000  0.000    2.292163827495700  1.22573 -33.00000   2.8389645  -5.7314479    8.9960377   0.0058215   0.000000      -0.000000    
 1.879361  5.349083  2.215149  8.333083  0.000000  0.000000  0.000  0.000    2.292165829938137  1.22573 -33.00000   2.8093898  -5.7314442    8.9984060   0.0058056   0.000000      -0.000000    
 1.851205  5.342622  2.212860  8.333751  0.000000  0.000000  0.000  0.000    2.292167919102254  1.22573 -33.00000   2.7797313  -5.7314386    9.0007165   0.0057902   0.000000      -0.000000    
 1.822964  5.336136  2.210634  8.334473  0.000000  0.000000  0.000  0.000    2.292170085787127  1.22573 -33.00000   2.7505037  -5.7314356    9.0030151   0.0057749   0.000000      -0.000000    
 1.794205  5.329509  2.208398  8.335108  0.000000  0.000000  0.000  0.000    2.292172342908611  1.22573 -33.00000   2.7212194  -5.7314306    9.0052680   0.0057600   0.000000      -0.000000    
 1.765110  5.322799  2.206225  8.335798  0.000000  0.000000  0.000  0.000    2.292174681432540  1.22573 -33.00000   2.6923795  -5.7314244    9.0075209   0.0057450   0.000000      -0.000000    
 1.735471  5.315939  2.204040  8.336401  0.000000  0.000000  0.000  0.000    2.292177116189582  1.22573 -33.00000   2.6634839  -5.7314213    9.0097218   0.0057305   0.000000      -0.000000    
 1.705612  5.309022  2.201916  8.337061  0.000000  0.000000  0.000  0.000    2.292179637919250  1.22573 -33.00000   2.6350262  -5.7314246    9.0119108   0.0057161   0.000000      -0.000000    
 1.675322  5.301982  2.199778  8.337633  0.000000  0.000000  0.000  0.000    2.292182262836942  1.22573 -33.00000   2.6064983  -5.7314266    9.0140429   0.0057021   0.000000      -0.000000    
 1.644898  5.294906  2.197699  8.338262  0.000000  0.000000  0.000  0.000    2.292184980900474  1.22573 -33.00000   2.5783987  -5.7314242    9.0161612   0.0056882   0.000000      -0.000000    
